# E [eV] - z=0 - z=1 - z=2 - z=3 - z=4 - z=5
1.000000e+16	9.828066e-26	4.123844e-26	1.568823e-26	0.000000e+00	0.000000e+00	0.000000e+00	
1.123324e+16	7.263651e-26	3.047818e-26	1.159473e-26	0.000000e+00	0.000000e+00	0.000000e+00	
1.261857e+16	5.368362e-26	2.252558e-26	8.569344e-27	0.000000e+00	0.000000e+00	0.000000e+00	
1.417474e+16	3.967608e-26	1.664803e-26	6.333364e-27	0.000000e+00	0.000000e+00	0.000000e+00	
1.592283e+16	2.932351e-26	1.230409e-26	4.680813e-27	0.000000e+00	0.000000e+00	0.000000e+00	
1.788650e+16	2.167224e-26	9.093614e-27	3.459459e-27	0.000000e+00	0.000000e+00	0.000000e+00	
2.009233e+16	1.601743e-26	6.720838e-27	2.556790e-27	0.000000e+00	0.000000e+00	0.000000e+00	
2.257020e+16	1.183817e-26	4.967185e-27	1.889652e-27	0.000000e+00	0.000000e+00	0.000000e+00	
2.535364e+16	8.749463e-27	3.671109e-27	1.396590e-27	0.000000e+00	0.000000e+00	0.000000e+00	
2.848036e+16	6.466774e-27	2.713218e-27	1.032181e-27	0.000000e+00	0.000000e+00	0.000000e+00	
3.199267e+16	4.779794e-27	2.005274e-27	7.628561e-28	0.000000e+00	0.000000e+00	0.000000e+00	
3.593814e+16	3.533076e-27	1.482064e-27	5.638063e-28	0.000000e+00	0.000000e+00	0.000000e+00	
4.037017e+16	2.611729e-27	1.095392e-27	4.166953e-28	0.000000e+00	0.000000e+00	0.000000e+00	
4.534879e+16	1.930801e-27	8.096395e-28	3.079723e-28	0.000000e+00	0.000000e+00	0.000000e+00	
5.094138e+16	1.427440e-27	5.984847e-28	2.276234e-28	0.000000e+00	0.000000e+00	0.000000e+00	
5.722368e+16	1.055087e-27	4.424683e-28	1.682490e-28	0.000000e+00	0.000000e+00	0.000000e+00	
6.428073e+16	7.789003e-28	3.272089e-28	1.243812e-28	0.000000e+00	0.000000e+00	0.000000e+00	
7.220809e+16	5.739803e-28	2.420649e-28	9.197918e-29	0.000000e+00	0.000000e+00	0.000000e+00	
8.111308e+16	4.227374e-28	1.791664e-28	6.805456e-29	0.000000e+00	0.000000e+00	0.000000e+00	
9.111628e+16	3.111682e-28	1.326857e-28	5.039540e-29	0.000000e+00	0.000000e+00	0.000000e+00	
1.023531e+17	2.289128e-28	9.828240e-29	3.736302e-29	0.000000e+00	0.000000e+00	0.000000e+00	
1.149757e+17	1.682810e-28	7.266943e-29	2.774041e-29	0.000000e+00	0.000000e+00	0.000000e+00	
1.291550e+17	1.236083e-28	5.323809e-29	2.062082e-29	0.000000e+00	0.000000e+00	0.000000e+00	
1.450829e+17	9.071233e-29	3.850378e-29	1.532440e-29	0.000000e+00	0.000000e+00	0.000000e+00	
1.629751e+17	6.649971e-29	2.770820e-29	1.133453e-29	0.000000e+00	0.000000e+00	0.000000e+00	
1.830738e+17	4.869306e-29	1.983866e-29	8.212412e-30	0.000000e+00	0.000000e+00	0.000000e+00	
2.056512e+17	3.560446e-29	1.411249e-29	5.614901e-30	0.000000e+00	0.000000e+00	0.000000e+00	
2.310130e+17	2.599356e-29	9.959294e-30	3.672620e-30	0.000000e+00	0.000000e+00	0.000000e+00	
2.595024e+17	1.894284e-29	6.963364e-30	2.359641e-30	0.000000e+00	0.000000e+00	0.000000e+00	
2.915053e+17	1.377991e-29	4.815004e-30	1.494734e-30	0.000000e+00	0.000000e+00	0.000000e+00	
3.274549e+17	9.999930e-30	3.288684e-30	9.378867e-31	0.000000e+00	0.000000e+00	0.000000e+00	
3.678380e+17	7.238310e-30	2.217636e-30	5.855697e-31	0.000000e+00	0.000000e+00	0.000000e+00	
4.132012e+17	5.223216e-30	1.477259e-30	3.654782e-31	0.000000e+00	0.000000e+00	0.000000e+00	
4.641589e+17	3.756188e-30	9.728775e-31	2.289349e-31	0.000000e+00	0.000000e+00	0.000000e+00	
5.214008e+17	2.690428e-30	6.353000e-31	1.442725e-31	0.000000e+00	0.000000e+00	0.000000e+00	
5.857021e+17	1.918870e-30	4.126027e-31	9.162506e-32	0.000000e+00	0.000000e+00	0.000000e+00	
6.579332e+17	1.362002e-30	2.672412e-31	5.884347e-32	0.000000e+00	0.000000e+00	0.000000e+00	
7.390722e+17	9.619208e-31	1.731463e-31	3.811764e-32	0.000000e+00	0.000000e+00	0.000000e+00	
8.302176e+17	6.759503e-31	1.124984e-31	2.493600e-32	0.000000e+00	0.000000e+00	0.000000e+00	
9.326033e+17	4.725073e-31	7.342694e-32	1.649785e-32	0.000000e+00	0.000000e+00	0.000000e+00	
1.047616e+18	3.287760e-31	4.821690e-32	1.101321e-32	0.000000e+00	0.000000e+00	0.000000e+00	
1.176812e+18	2.278604e-31	3.188226e-32	7.419564e-33	0.000000e+00	0.000000e+00	0.000000e+00	
1.321941e+18	1.574262e-31	2.124160e-32	5.042231e-33	0.000000e+00	0.000000e+00	0.000000e+00	
1.484968e+18	1.085263e-31	1.425827e-32	3.454824e-33	0.000000e+00	0.000000e+00	0.000000e+00	
1.668101e+18	7.471404e-32	9.645720e-33	2.384847e-33	0.000000e+00	0.000000e+00	0.000000e+00	
1.873817e+18	5.146291e-32	6.574068e-33	1.657963e-33	0.000000e+00	0.000000e+00	0.000000e+00	
2.104904e+18	3.545655e-32	4.513202e-33	1.159967e-33	0.000000e+00	0.000000e+00	0.000000e+00	
2.364489e+18	2.447461e-32	3.119686e-33	8.163304e-34	0.000000e+00	0.000000e+00	0.000000e+00	
2.656088e+18	1.694056e-32	2.170617e-33	5.775433e-34	0.000000e+00	0.000000e+00	0.000000e+00	
2.983647e+18	1.175558e-32	1.519447e-33	4.104856e-34	0.000000e+00	0.000000e+00	0.000000e+00	
3.351603e+18	8.191022e-33	1.069445e-33	2.929674e-34	0.000000e+00	0.000000e+00	0.000000e+00	
3.764936e+18	5.723334e-33	7.566532e-34	2.097839e-34	0.000000e+00	0.000000e+00	0.000000e+00	
4.229243e+18	4.016659e-33	5.377425e-34	1.506443e-34	0.000000e+00	0.000000e+00	0.000000e+00	
4.750810e+18	2.829163e-33	3.837576e-34	1.083851e-34	0.000000e+00	0.000000e+00	0.000000e+00	
5.336699e+18	1.999523e-33	2.747970e-34	7.807756e-35	0.000000e+00	0.000000e+00	0.000000e+00	
5.994843e+18	1.420872e-33	1.973467e-34	5.624989e-35	0.000000e+00	0.000000e+00	0.000000e+00	
6.734151e+18	1.012512e-33	1.420260e-34	4.048252e-35	0.000000e+00	0.000000e+00	0.000000e+00	
7.564633e+18	7.237995e-34	1.023664e-34	2.908083e-35	0.000000e+00	0.000000e+00	0.000000e+00	
8.497534e+18	5.190615e-34	7.384057e-35	2.080970e-35	0.000000e+00	0.000000e+00	0.000000e+00	
9.545485e+18	3.732737e-34	5.322214e-35	1.475260e-35	0.000000e+00	0.000000e+00	0.000000e+00	
1.072267e+19	2.690943e-34	3.831460e-35	1.036789e-35	0.000000e+00	0.000000e+00	0.000000e+00	
1.204504e+19	1.943270e-34	2.748092e-35	7.150906e-36	0.000000e+00	0.000000e+00	0.000000e+00	
1.353048e+19	1.405660e-34	1.960355e-35	4.806664e-36	0.000000e+00	0.000000e+00	0.000000e+00	
1.519911e+19	1.017486e-34	1.386578e-35	3.106206e-36	0.000000e+00	0.000000e+00	0.000000e+00	
1.707353e+19	7.365532e-35	9.679665e-36	1.910288e-36	0.000000e+00	0.000000e+00	0.000000e+00	
1.917910e+19	5.329021e-35	6.618572e-36	1.112639e-36	0.000000e+00	0.000000e+00	0.000000e+00	
2.154435e+19	3.847744e-35	4.382936e-36	6.188854e-37	0.000000e+00	0.000000e+00	0.000000e+00	
2.420128e+19	2.770353e-35	2.776220e-36	3.347660e-37	0.000000e+00	0.000000e+00	0.000000e+00	
2.718588e+19	1.983223e-35	1.670300e-36	1.799262e-37	0.000000e+00	0.000000e+00	0.000000e+00	
3.053856e+19	1.410215e-35	9.540676e-37	9.781731e-38	0.000000e+00	0.000000e+00	0.000000e+00	
3.430469e+19	9.899782e-36	5.243184e-37	5.437552e-38	0.000000e+00	0.000000e+00	0.000000e+00	
3.853529e+19	6.832198e-36	2.831207e-37	3.109673e-38	0.000000e+00	0.000000e+00	0.000000e+00	
4.328761e+19	4.590245e-36	1.532030e-37	1.831789e-38	0.000000e+00	0.000000e+00	0.000000e+00	
4.862602e+19	2.969088e-36	8.434116e-38	1.110422e-38	0.000000e+00	0.000000e+00	0.000000e+00	
5.462277e+19	1.835146e-36	4.763130e-38	6.913816e-39	0.000000e+00	0.000000e+00	0.000000e+00	
6.135907e+19	1.081693e-36	2.767300e-38	4.410910e-39	0.000000e+00	0.000000e+00	0.000000e+00	
6.892612e+19	6.128478e-37	1.655780e-38	2.874826e-39	0.000000e+00	0.000000e+00	0.000000e+00	
7.742637e+19	3.395481e-37	1.018377e-38	1.909180e-39	0.000000e+00	0.000000e+00	0.000000e+00	
8.697490e+19	1.874670e-37	6.424159e-39	1.288297e-39	0.000000e+00	0.000000e+00	0.000000e+00	
9.770100e+19	1.047148e-37	4.146605e-39	8.815873e-40	0.000000e+00	0.000000e+00	0.000000e+00	
1.097499e+20	5.974928e-38	2.730322e-39	6.106353e-40	0.000000e+00	0.000000e+00	0.000000e+00	
1.232847e+20	3.497911e-38	1.828876e-39	4.273222e-40	0.000000e+00	0.000000e+00	0.000000e+00	
1.384886e+20	2.104127e-38	1.243372e-39	3.017373e-40	0.000000e+00	0.000000e+00	0.000000e+00	
1.555676e+20	1.299573e-38	8.564371e-40	2.147058e-40	0.000000e+00	0.000000e+00	0.000000e+00	
1.747528e+20	8.224811e-39	5.964976e-40	1.538277e-40	0.000000e+00	0.000000e+00	0.000000e+00	
1.963041e+20	5.321053e-39	4.194730e-40	1.108735e-40	0.000000e+00	0.000000e+00	0.000000e+00	
2.205131e+20	3.510130e-39	2.974224e-40	8.031958e-41	0.000000e+00	0.000000e+00	0.000000e+00	
2.477076e+20	2.354934e-39	2.123992e-40	5.843724e-41	0.000000e+00	0.000000e+00	0.000000e+00	
2.782559e+20	1.602897e-39	1.526641e-40	4.266596e-41	0.000000e+00	0.000000e+00	0.000000e+00	
3.125716e+20	1.105309e-39	1.103365e-40	3.126189e-41	0.000000e+00	0.000000e+00	0.000000e+00	
3.511192e+20	7.704926e-40	8.011964e-41	2.294654e-41	0.000000e+00	0.000000e+00	0.000000e+00	
3.944206e+20	5.421517e-40	5.840324e-41	1.686618e-41	0.000000e+00	0.000000e+00	0.000000e+00	
4.430621e+20	3.846104e-40	4.272000e-41	1.241404e-41	0.000000e+00	0.000000e+00	0.000000e+00	
4.977024e+20	2.747993e-40	3.133596e-41	9.141758e-42	0.000000e+00	0.000000e+00	0.000000e+00	
5.590810e+20	1.975993e-40	2.301962e-41	6.731621e-42	0.000000e+00	0.000000e+00	0.000000e+00	
6.280291e+20	1.428609e-40	1.693524e-41	4.956821e-42	0.000000e+00	0.000000e+00	0.000000e+00	
7.054802e+20	1.037567e-40	1.246567e-41	3.650132e-42	0.000000e+00	0.000000e+00	0.000000e+00	
7.924829e+20	7.564331e-41	9.179409e-42	2.687123e-42	0.000000e+00	0.000000e+00	0.000000e+00	
8.902151e+20	5.534799e-41	6.759919e-42	1.980903e-42	0.000000e+00	0.000000e+00	0.000000e+00	
1.000000e+21	4.060192e-41	4.977913e-42	1.455989e-42	0.000000e+00	0.000000e+00	0.000000e+00	
