#log10(E) [eV] - log10(beta_0) [1/yr] - log10(db_0/dE) [1/yr]
1.700000e+01	-2.022762e+01	-1.914546e+01	
1.705000e+01	-1.917846e+01	-1.813916e+01	
1.710000e+01	-1.823655e+01	-1.723914e+01	
1.715000e+01	-1.738957e+01	-1.643330e+01	
1.720000e+01	-1.662689e+01	-1.571091e+01	
1.725000e+01	-1.594048e+01	-1.506424e+01	
1.730000e+01	-1.532207e+01	-1.448472e+01	
1.735000e+01	-1.476450e+01	-1.396516e+01	
1.740000e+01	-1.426145e+01	-1.349928e+01	
1.745000e+01	-1.380727e+01	-1.308136e+01	
1.750000e+01	-1.339697e+01	-1.270643e+01	
1.755000e+01	-1.302606e+01	-1.236991e+01	
1.760000e+01	-1.269053e+01	-1.206786e+01	
1.765000e+01	-1.238682e+01	-1.179661e+01	
1.770000e+01	-1.211174e+01	-1.155299e+01	
1.775000e+01	-1.186246e+01	-1.133414e+01	
1.780000e+01	-1.163641e+01	-1.113748e+01	
1.785000e+01	-1.143134e+01	-1.096079e+01	
1.790000e+01	-1.124521e+01	-1.080197e+01	
1.795000e+01	-1.107618e+01	-1.065917e+01	
1.800000e+01	-1.092261e+01	-1.053087e+01	
1.805000e+01	-1.078313e+01	-1.041561e+01	
1.810000e+01	-1.065634e+01	-1.031204e+01	
1.815000e+01	-1.054111e+01	-1.021904e+01	
1.820000e+01	-1.043638e+01	-1.013559e+01	
1.825000e+01	-1.034123e+01	-1.006078e+01	
1.830000e+01	-1.025481e+01	-9.993806e+00	
1.835000e+01	-1.017637e+01	-9.933932e+00	
1.840000e+01	-1.010523e+01	-9.880511e+00	
1.845000e+01	-1.004077e+01	-9.832978e+00	
1.850000e+01	-9.982445e+00	-9.790783e+00	
1.855000e+01	-9.929774e+00	-9.753497e+00	
1.860000e+01	-9.882280e+00	-9.720661e+00	
1.865000e+01	-9.839576e+00	-9.691921e+00	
1.870000e+01	-9.801274e+00	-9.667030e+00	
1.875000e+01	-9.767052e+00	-9.645491e+00	
1.880000e+01	-9.736659e+00	-9.627128e+00	
1.885000e+01	-9.709689e+00	-9.611805e+00	
1.890000e+01	-9.686087e+00	-9.599243e+00	
1.895000e+01	-9.665419e+00	-9.589083e+00	
1.900000e+01	-9.647615e+00	-9.581344e+00	
1.905000e+01	-9.632448e+00	-9.575658e+00	
1.910000e+01	-9.619691e+00	-9.572185e+00	
1.915000e+01	-9.609327e+00	-9.570703e+00	
1.920000e+01	-9.601082e+00	-9.570745e+00	
1.925000e+01	-9.594833e+00	-9.572468e+00	
1.930000e+01	-9.590513e+00	-9.575762e+00	
1.935000e+01	-9.587924e+00	-9.580254e+00	
1.940000e+01	-9.586927e+00	-9.585107e+00	
1.945000e+01	-9.587019e+00	-9.587936e+00	
1.950000e+01	-9.587185e+00	-9.587671e+00	
1.955000e+01	-9.585171e+00	-9.563645e+00	
1.960000e+01	-9.576401e+00	-9.514005e+00	
1.965000e+01	-9.553310e+00	-9.423928e+00	
1.970000e+01	-9.505939e+00	-9.292768e+00	
1.975000e+01	-9.425994e+00	-9.131608e+00	
1.980000e+01	-9.312398e+00	-8.956310e+00	
1.985000e+01	-9.173121e+00	-8.781267e+00	
1.990000e+01	-9.020677e+00	-8.616325e+00	
1.995000e+01	-8.866722e+00	-8.466896e+00	
2.000000e+01	-8.719140e+00	-8.335054e+00	
2.005000e+01	-8.582759e+00	-8.221305e+00	
2.010000e+01	-8.459542e+00	-8.124601e+00	
2.015000e+01	-8.350276e+00	-8.043834e+00	
2.020000e+01	-8.254404e+00	-7.976658e+00	
2.025000e+01	-8.171091e+00	-7.921726e+00	
2.030000e+01	-8.099235e+00	-7.877208e+00	
2.035000e+01	-8.037482e+00	-7.841087e+00	
2.040000e+01	-7.984662e+00	-7.810984e+00	
2.045000e+01	-7.938953e+00	-7.786839e+00	
2.050000e+01	-7.900582e+00	-7.768250e+00	
2.055000e+01	-7.867674e+00	-7.752653e+00	
2.060000e+01	-7.839778e+00	-7.740657e+00	
2.065000e+01	-7.816411e+00	-7.731667e+00	
2.070000e+01	-7.796575e+00	-7.725153e+00	
2.075000e+01	-7.780624e+00	-7.721828e+00	
2.080000e+01	-7.767359e+00	-7.719132e+00	
2.085000e+01	-7.757133e+00	-7.718936e+00	
2.090000e+01	-7.749048e+00	-7.719323e+00	
2.095000e+01	-7.742977e+00	-7.723349e+00	
2.100000e+01	-7.738326e+00	-7.721929e+00	
2.105000e+01	-7.735305e+00	-7.723617e+00	
2.110000e+01	-7.732854e+00	-7.723866e+00	
2.115000e+01	-7.731165e+00	-7.724731e+00	
2.120000e+01	-7.729837e+00	-7.724551e+00	
2.125000e+01	-7.729121e+00	-7.723662e+00	
2.130000e+01	-7.727523e+00	-7.722011e+00	
2.135000e+01	-7.726158e+00	-7.720004e+00	
2.140000e+01	-7.724661e+00	-7.727060e+00	
2.145000e+01	-7.726207e+00	-7.718157e+00	
2.150000e+01	-7.720915e+00	-7.704472e+00	
2.155000e+01	-7.718649e+00	-7.708850e+00	
2.160000e+01	-7.716354e+00	-7.705756e+00	
2.165000e+01	-7.713810e+00	-7.702764e+00	
2.170000e+01	-7.711208e+00	-7.700049e+00	
2.175000e+01	-7.708608e+00	-7.707557e+00	
2.180000e+01	-7.706040e+00	-7.694989e+00	
2.185000e+01	-7.703500e+00	-7.693067e+00	
2.190000e+01	-7.701105e+00	-7.691200e+00	
2.195000e+01	-7.699252e+00	-7.693141e+00	
2.200000e+01	-7.696871e+00	-7.687904e+00	
2.205000e+01	-7.695015e+00	-7.687718e+00	
2.210000e+01	-7.693248e+00	-7.687026e+00	
2.215000e+01	-7.691934e+00	-7.686241e+00	
2.220000e+01	-7.690872e+00	-7.685719e+00	
2.225000e+01	-7.689621e+00	-7.684782e+00	
2.230000e+01	-7.688584e+00	-7.683562e+00	
2.235000e+01	-7.687333e+00	-7.682254e+00	
2.240000e+01	-7.686481e+00	-7.682671e+00	
2.245000e+01	-7.685662e+00	-7.681837e+00	
2.250000e+01	-7.684851e+00	-7.681598e+00	
2.255000e+01	-7.684283e+00	-7.681173e+00	
2.260000e+01	-7.683508e+00	-7.680140e+00	
2.265000e+01	-7.682838e+00	-7.679576e+00	
2.270000e+01	-7.682054e+00	-7.678830e+00	
2.275000e+01	-7.681426e+00	-7.677875e+00	
2.280000e+01	-7.680607e+00	-7.676783e+00	
2.285000e+01	-7.679745e+00	-7.675814e+00	
2.290000e+01	-7.678792e+00	-7.674548e+00	
2.295000e+01	-7.677897e+00	-7.673400e+00	
2.300000e+01	-7.676868e+00	-7.672007e+00	
2.305000e+01	-7.675740e+00	-7.670477e+00	
2.310000e+01	-7.674521e+00	-7.668910e+00	
2.315000e+01	-7.673231e+00	-7.667198e+00	
2.320000e+01	-7.671833e+00	-7.665403e+00	
2.325000e+01	-7.670343e+00	-7.663463e+00	
2.330000e+01	-7.668741e+00	-7.661396e+00	
2.335000e+01	-7.667032e+00	-7.659251e+00	
2.340000e+01	-7.665226e+00	-7.656986e+00	
2.345000e+01	-7.663309e+00	-7.654631e+00	
2.350000e+01	-7.661291e+00	-7.652162e+00	
2.355000e+01	-7.659165e+00	-7.649587e+00	
2.360000e+01	-7.656935e+00	-7.646932e+00	
2.365000e+01	-7.654608e+00	-7.644178e+00	
2.370000e+01	-7.652179e+00	-7.641337e+00	
2.375000e+01	-7.649654e+00	-7.638413e+00	
2.380000e+01	-7.647036e+00	-7.635405e+00	
2.385000e+01	-7.644327e+00	-7.632321e+00	
2.390000e+01	-7.641531e+00	-7.629160e+00	
2.395000e+01	-7.638649e+00	-7.625928e+00	
2.400000e+01	-7.635685e+00	-7.622625e+00	
